GAME RV,[id],[Time],[X],[Y]
0,1668904089610,0.07051599770784378,-0.10969600081443787,0.6726710200309753
1,1668904089619,0.07051300257444382,-0.10969699919223785,0.6726729869842529
2,1668904089630,0.07051499933004379,-0.1097010001540184,0.6726769804954529
3,1668904089646,0.07054899632930756,-0.1097249984741211,0.6726750135421753
4,1668904089656,0.0705609992146492,-0.10973700135946274,0.6726760268211365
5,1668904089679,0.0705839991569519,-0.10975199937820435,0.6726740002632141
6,1668904089697,0.07060900330543518,-0.1097709983587265,0.6726830005645752
7,1668904089706,0.07062099874019623,-0.1097870022058487,0.672685980796814
8,1668904089715,0.07062900066375732,-0.10979200154542923,0.6726869940757751
9,1668904089722,0.07062900066375732,-0.10979200154542923,0.6726869940757751
10,1668904089733,0.07063300162553787,-0.1097939983010292,0.6726880073547363
11,1668904089741,0.07063700258731842,-0.1097949966788292,0.6726899743080139
12,1668904089754,0.0706230029463768,-0.10981400310993195,0.6726959943771362
13,1668904089764,0.07059100270271301,-0.10982699692249298,0.6726999878883362
14,1668904089770,0.07059100270271301,-0.10982699692249298,0.6726999878883362
15,1668904089779,0.07057700306177139,-0.10984700173139572,0.6727030277252197
16,1668904089787,0.07057099789381027,-0.10985799878835678,0.6727060079574585
17,1668904089796,0.07056400179862976,-0.10986600071191788,0.6727129817008972
18,1668904089804,0.07056400179862976,-0.10986600071191788,0.6727129817008972
19,1668904089817,0.07056400179862976,-0.10987500101327896,0.6727179884910583
20,1668904089829,0.07056500017642975,-0.10987000167369843,0.6727229952812195
21,1668904089838,0.0705690011382103,-0.1098560020327568,0.672730028629303
22,1668904089849,0.07055799663066864,-0.10986000299453735,0.6727330088615417
23,1668904089859,0.07055699825286865,-0.10985100269317627,0.6727349758148193
24,1668904089868,0.07054899632930756,-0.10984800010919571,0.6727409958839417
25,1668904089876,0.0705379992723465,-0.10985399782657623,0.6727449893951416
26,1668904089885,0.0705140009522438,-0.10987599939107895,0.6727480292320251
27,1668904089892,0.0705140009522438,-0.10987599939107895,0.6727480292320251
28,1668904089912,0.07049400359392166,-0.1099499985575676,0.6727610230445862
29,1668904089921,0.07049600034952164,-0.10995399951934814,0.6727669835090637
30,1668904089930,0.07050199806690216,-0.10995800048112869,0.672773003578186
31,1668904089940,0.07051099836826324,-0.10996200144290924,0.6727790236473083
32,1668904089956,0.07051700353622437,-0.10994900017976761,0.672789990901947
33,1668904089964,0.07051700353622437,-0.10994900017976761,0.672789990901947
34,1668904089972,0.07052300125360489,-0.1099499985575676,0.6727820038795471
35,1668904089981,0.07051999866962433,-0.10995800048112869,0.6727759838104248
36,1668904089993,0.07051700353622437,-0.10995300114154816,0.6727780103683472
37,1668904090002,0.07052800059318542,-0.10993999987840652,0.6727799773216248
38,1668904090009,0.07052800059318542,-0.1099499985575676,0.6727849841117859
39,1668904090018,0.07052800059318542,-0.10995899885892868,0.6727870106697083
40,1668904090027,0.07053200155496597,-0.1099649965763092,0.6727880239486694
41,1668904090039,0.07052399963140488,-0.10997799783945084,0.6727880239486694
42,1668904090047,0.07052399963140488,-0.10998500138521194,0.672793984413147
43,1668904090058,0.07050500065088272,-0.11000899970531464,0.6728039979934692
44,1668904090067,0.07048299908638,-0.11002299934625626,0.672810971736908
45,1668904090074,0.07048299908638,-0.11002299934625626,0.672810971736908
46,1668904090082,0.07046300172805786,-0.11002899706363678,0.6728209853172302
47,1668904090093,0.07045599818229675,-0.1100270003080368,0.6728270053863525
48,1668904090102,0.07043600082397461,-0.11005999892950058,0.6728270053863525
49,1668904090112,0.07041499763727188,-0.11009000241756439,0.6728270053863525
50,1668904090121,0.07039900124073029,-0.11010000109672546,0.6728230118751526
51,1668904090130,0.0703750029206276,-0.11010900139808655,0.6728289723396301
52,1668904090139,0.07034999877214432,-0.11010400205850601,0.6728410124778748
53,1668904090148,0.07035399973392487,-0.11008500307798386,0.6728540062904358
54,1668904090156,0.0703359991312027,-0.11012200266122818,0.6728540062904358
55,1668904090164,0.0703359991312027,-0.11012200266122818,0.6728540062904358
56,1668904090173,0.07031899690628052,-0.11016099900007248,0.6728540062904358
57,1668904090182,0.0703279972076416,-0.11018799990415573,0.6728519797325134
58,1668904090197,0.07030799984931946,-0.1102679967880249,0.6728630065917969
59,1668904090201,0.07030799984931946,-0.1102679967880249,0.6728630065917969
60,1668904090213,0.07030899822711945,-0.11027900129556656,0.6728649735450745
61,1668904090220,0.07030300050973892,-0.11029399931430817,0.6728709936141968
62,1668904090230,0.07027599960565567,-0.11033199727535248,0.6728789806365967
63,1668904090241,0.07026699930429459,-0.11033999919891357,0.672888994216919
64,1668904090251,0.07025399804115295,-0.11036399751901627,0.6728940010070801
65,1668904090261,0.0702349990606308,-0.11037299782037735,0.6729009747505188
66,1668904090269,0.07023599743843079,-0.11036299914121628,0.6729090213775635
67,1668904090278,0.07023300230503082,-0.11035899817943573,0.6729109883308411
68,1668904090287,0.0702430009841919,-0.11034099757671356,0.6729090213775635
69,1668904090296,0.07025299966335297,-0.11033199727535248,0.6729109883308411
70,1668904090303,0.07025299966335297,-0.11033199727535248,0.6729109883308411
71,1668904090312,0.07025700062513351,-0.11032100021839142,0.6729130148887634
72,1668904090321,0.07025700062513351,-0.11031600087881088,0.672914981842041
73,1668904090330,0.07025200128555298,-0.11031100153923035,0.6729210019111633
74,1668904090338,0.07025200128555298,-0.11030399799346924,0.672927975654602
75,1668904090345,0.07025200128555298,-0.11030399799346924,0.672927975654602
76,1668904090354,0.07026799768209457,-0.11028999835252762,0.6729379892349243
77,1668904090363,0.07027000188827515,-0.11027500033378601,0.6729400157928467
78,1668904090372,0.07028599828481674,-0.1102830022573471,0.6729379892349243
79,1668904090381,0.07030399888753891,-0.11028099805116653,0.6729390025138855
80,1668904090389,0.07032400369644165,-0.11028099805116653,0.6729379892349243
81,1668904090398,0.07036300003528595,-0.11025500297546387,0.6729419827461243
82,1668904090405,0.07036300003528595,-0.11025500297546387,0.6729419827461243
83,1668904090412,0.07244499772787094,-0.10853400081396103,0.6729559898376465
84,1668904090440,0.08560799807310104,-0.08858200162649155,0.6725289821624756
85,1668904090457,0.08560799807310104,-0.08858200162649155,0.6725289821624756
86,1668904090484,0.08560799807310104,-0.08858200162649155,0.6725289821624756
87,1668904090535,0.07749000191688538,-0.09994799643754959,0.6724140048027039
88,1668904090557,0.07749000191688538,-0.09994799643754959,0.6724140048027039
89,1668904090604,0.07749000191688538,-0.09994799643754959,0.6724140048027039
90,1668904090650,0.07749000191688538,-0.09994799643754959,0.6724140048027039
91,1668904090672,0.07473299652338028,-0.10401500016450882,0.6720160245895386
92,1668904091492,0.07413899898529053,-0.1057640016078949,0.6723170280456543
93,1668904091495,0.07413899898529053,-0.1057640016078949,0.6723170280456543
94,1668904091495,0.07413899898529053,-0.1057640016078949,0.6723170280456543
95,1668904091522,0.07413899898529053,-0.1057640016078949,0.6723170280456543
96,1668904091508,0.07413899898529053,-0.1057640016078949,0.6723170280456543
97,1668904091541,0.07413899898529053,-0.1057640016078949,0.6723170280456543
98,1668904091542,0.07413899898529053,-0.1057640016078949,0.6723170280456543
99,1668904091583,0.07413899898529053,-0.1057640016078949,0.6723170280456543
100,1668904091608,0.07413899898529053,-0.1057640016078949,0.6723170280456543
101,1668904091600,0.07413899898529053,-0.1057640016078949,0.6723170280456543
102,1668904091620,0.07413899898529053,-0.1057640016078949,0.6723170280456543
103,1668904091634,0.07413899898529053,-0.1057640016078949,0.6723170280456543
104,1668904091653,0.07413899898529053,-0.1057640016078949,0.6723170280456543
105,1668904091669,0.07413899898529053,-0.1057640016078949,0.6723170280456543
106,1668904091682,0.07413899898529053,-0.1057640016078949,0.6723170280456543
107,1668904091694,0.07413899898529053,-0.1057640016078949,0.6723170280456543
108,1668904091729,0.07413899898529053,-0.1057640016078949,0.6723170280456543
109,1668904091766,0.07413899898529053,-0.1057640016078949,0.6723170280456543
110,1668904091769,0.07413899898529053,-0.1057640016078949,0.6723170280456543
111,1668904091782,0.07413899898529053,-0.1057640016078949,0.6723170280456543
112,1668904091796,0.07413899898529053,-0.1057640016078949,0.6723170280456543
113,1668904091835,0.07434900104999542,-0.10563600063323975,0.6726369857788086
114,1668904091847,0.07434900104999542,-0.10563600063323975,0.6726369857788086
115,1668904091857,0.07434900104999542,-0.10563600063323975,0.6726369857788086
116,1668904091876,0.07434900104999542,-0.10563600063323975,0.6726369857788086
117,1668904091889,0.07434900104999542,-0.10563600063323975,0.6726369857788086
118,1668904091948,0.07436499744653702,-0.1055229976773262,0.6726769804954529
119,1668904092055,0.07436499744653702,-0.1055229976773262,0.6726769804954529
120,1668904092078,0.07436499744653702,-0.1055229976773262,0.6726769804954529
121,1668904092090,0.07436499744653702,-0.1055229976773262,0.6726769804954529
122,1668904092103,0.07436499744653702,-0.1055229976773262,0.6726769804954529
123,1668904092105,0.07436499744653702,-0.1055229976773262,0.6726769804954529
124,1668904092117,0.07436499744653702,-0.1055229976773262,0.6726769804954529
125,1668904092128,0.07436499744653702,-0.1055229976773262,0.6726769804954529
126,1668904092141,0.07436499744653702,-0.1055229976773262,0.6726769804954529
127,1668904092160,0.07436499744653702,-0.1055229976773262,0.6726769804954529
128,1668904092168,0.07436499744653702,-0.1055229976773262,0.6726769804954529
129,1668904092183,0.07436499744653702,-0.1055229976773262,0.6726769804954529
130,1668904092194,0.07457300275564194,-0.10561899840831757,0.6728280186653137
131,1668904092208,0.07457000017166138,-0.10561300069093704,0.6728349924087524
132,1668904092217,0.0745600014925003,-0.10562899708747864,0.6728420257568359
133,1668904092230,0.07453499734401703,-0.10563100129365921,0.6728519797325134
134,1668904092243,0.07450900226831436,-0.1056239977478981,0.6728659868240356
135,1668904092257,0.07450900226831436,-0.1056239977478981,0.6728659868240356
136,1668904092282,0.07447600364685059,-0.10565000027418137,0.6728900074958801
137,1668904092289,0.07447600364685059,-0.10565000027418137,0.6728900074958801
138,1668904092300,0.07447600364685059,-0.10565000027418137,0.6728900074958801
139,1668904092310,0.07447600364685059,-0.10565000027418137,0.6728900074958801
140,1668904092320,0.07447600364685059,-0.10565000027418137,0.6728900074958801
141,1668904092352,0.07447600364685059,-0.10565000027418137,0.6728900074958801
142,1668904092375,0.07447600364685059,-0.10565000027418137,0.6728900074958801
143,1668904092402,0.07447600364685059,-0.10565000027418137,0.6728900074958801
144,1668904092417,0.07447600364685059,-0.10565000027418137,0.6728900074958801
145,1668904092448,0.07447600364685059,-0.10565000027418137,0.6728900074958801
146,1668904092469,0.07447600364685059,-0.10565000027418137,0.6728900074958801
147,1668904092474,0.07447600364685059,-0.10565000027418137,0.6728900074958801
148,1668904092497,0.07447600364685059,-0.10565000027418137,0.6728900074958801
149,1668904092555,0.07447600364685059,-0.10565000027418137,0.6728900074958801
150,1668904092597,0.07447600364685059,-0.10565000027418137,0.6728900074958801
151,1668904092617,0.07447600364685059,-0.10565000027418137,0.6728900074958801
152,1668904092657,0.07447600364685059,-0.10565000027418137,0.6728900074958801
153,1668904092698,0.07447600364685059,-0.10565000027418137,0.6728900074958801
154,1668904092749,0.07447600364685059,-0.10565000027418137,0.6728900074958801
155,1668904092769,0.07447600364685059,-0.10565000027418137,0.6728900074958801
156,1668904092807,0.07447600364685059,-0.10565000027418137,0.6728900074958801
157,1668904092833,0.07447600364685059,-0.10565000027418137,0.6728900074958801
158,1668904092856,0.07447600364685059,-0.10565000027418137,0.6728900074958801
159,1668904092881,0.07447600364685059,-0.10565000027418137,0.6728900074958801
160,1668904092921,0.07447600364685059,-0.10565000027418137,0.6728900074958801
161,1668904092986,0.07447600364685059,-0.10565000027418137,0.6728900074958801
162,1668904093017,0.07447600364685059,-0.10565000027418137,0.6728900074958801
163,1668904093088,0.07447600364685059,-0.10565000027418137,0.6728900074958801
164,1668904093119,0.07447600364685059,-0.10565000027418137,0.6728900074958801
165,1668904093109,0.07447600364685059,-0.10565000027418137,0.6728900074958801
166,1668904093140,0.07447600364685059,-0.10565000027418137,0.6728900074958801
167,1668904093171,0.07447600364685059,-0.10565000027418137,0.6728900074958801
168,1668904093193,0.07447600364685059,-0.10565000027418137,0.6728900074958801
169,1668904093215,0.07447600364685059,-0.10565000027418137,0.6728900074958801
170,1668904093232,0.07447600364685059,-0.10565000027418137,0.6728900074958801
171,1668904093250,0.07447600364685059,-0.10565000027418137,0.6728900074958801
172,1668904093267,0.07447600364685059,-0.10565000027418137,0.6728900074958801
173,1668904093281,0.07447600364685059,-0.10565000027418137,0.6728900074958801
174,1668904093303,0.07447600364685059,-0.10565000027418137,0.6728900074958801
175,1668904093333,0.07447600364685059,-0.10565000027418137,0.6728900074958801
176,1668904093376,0.07447600364685059,-0.10565000027418137,0.6728900074958801
177,1668904093423,0.07447600364685059,-0.10565000027418137,0.6728900074958801
178,1668904093440,0.07447600364685059,-0.10565000027418137,0.6728900074958801
179,1668904093459,0.07447600364685059,-0.10565000027418137,0.6728900074958801
180,1668904093473,0.07447600364685059,-0.10565000027418137,0.6728900074958801
181,1668904093489,0.07447600364685059,-0.10565000027418137,0.6728900074958801
182,1668904093501,0.07447600364685059,-0.10565000027418137,0.6728900074958801
183,1668904093521,0.07447600364685059,-0.10565000027418137,0.6728900074958801
184,1668904093549,0.07447600364685059,-0.10565000027418137,0.6728900074958801
185,1668904093582,0.07447600364685059,-0.10565000027418137,0.6728900074958801
186,1668904093617,0.07447600364685059,-0.10565000027418137,0.6728900074958801
187,1668904093631,0.07447600364685059,-0.10565000027418137,0.6728900074958801
188,1668904093674,0.07447600364685059,-0.10565000027418137,0.6728900074958801
189,1668904093689,0.07447600364685059,-0.10565000027418137,0.6728900074958801
190,1668904093700,0.07447600364685059,-0.10565000027418137,0.6728900074958801
191,1668904093718,0.07447600364685059,-0.10565000027418137,0.6728900074958801
192,1668904093739,0.07447600364685059,-0.10565000027418137,0.6728900074958801
193,1668904093770,0.07447600364685059,-0.10565000027418137,0.6728900074958801
194,1668904093787,0.07447600364685059,-0.10565000027418137,0.6728900074958801
195,1668904093799,0.07447600364685059,-0.10565000027418137,0.6728900074958801
196,1668904093817,0.07447600364685059,-0.10565000027418137,0.6728900074958801
197,1668904093849,0.07447600364685059,-0.10565000027418137,0.6728900074958801
198,1668904093861,0.07447600364685059,-0.10565000027418137,0.6728900074958801
199,1668904093875,0.07447600364685059,-0.10565000027418137,0.6728900074958801
200,1668904093954,0.07447600364685059,-0.10565000027418137,0.6728900074958801
201,1668904093943,0.07447600364685059,-0.10565000027418137,0.6728900074958801
202,1668904093974,0.07447600364685059,-0.10565000027418137,0.6728900074958801
203,1668904093989,0.07447600364685059,-0.10565000027418137,0.6728900074958801
204,1668904094001,0.07447600364685059,-0.10565000027418137,0.6728900074958801
205,1668904094015,0.07447600364685059,-0.10565000027418137,0.6728900074958801
206,1668904094081,0.07447600364685059,-0.10565000027418137,0.6728900074958801
207,1668904094098,0.07447600364685059,-0.10565000027418137,0.6728900074958801
208,1668904094109,0.07447600364685059,-0.10565000027418137,0.6728900074958801
209,1668904094124,0.07447600364685059,-0.10565000027418137,0.6728900074958801
210,1668904094142,0.07447600364685059,-0.10565000027418137,0.6728900074958801
211,1668904094160,0.07447600364685059,-0.10565000027418137,0.6728900074958801
212,1668904094194,0.07447600364685059,-0.10565000027418137,0.6728900074958801
213,1668904094223,0.07447600364685059,-0.10565000027418137,0.6728900074958801
214,1668904094254,0.07447600364685059,-0.10565000027418137,0.6728900074958801
215,1668904094282,0.07447600364685059,-0.10565000027418137,0.6728900074958801
216,1668904094302,0.07447600364685059,-0.10565000027418137,0.6728900074958801
217,1668904094316,0.07447600364685059,-0.10565000027418137,0.6728900074958801
218,1668904094350,0.07447600364685059,-0.10565000027418137,0.6728900074958801
219,1668904094364,0.07447600364685059,-0.10565000027418137,0.6728900074958801
220,1668904094404,0.07447600364685059,-0.10565000027418137,0.6728900074958801
221,1668904094416,0.07447600364685059,-0.10565000027418137,0.6728900074958801
222,1668904094428,0.07447600364685059,-0.10565000027418137,0.6728900074958801
223,1668904094445,0.07447600364685059,-0.10565000027418137,0.6728900074958801
224,1668904094464,0.07447600364685059,-0.10565000027418137,0.6728900074958801
225,1668904094494,0.07447600364685059,-0.10565000027418137,0.6728900074958801
226,1668904094515,0.07447600364685059,-0.10565000027418137,0.6728900074958801
227,1668904094543,0.07447600364685059,-0.10565000027418137,0.6728900074958801
228,1668904094555,0.07447600364685059,-0.10565000027418137,0.6728900074958801
229,1668904094571,0.07447600364685059,-0.10565000027418137,0.6728900074958801
230,1668904094590,0.07447600364685059,-0.10565000027418137,0.6728900074958801
231,1668904094604,0.07447600364685059,-0.10565000027418137,0.6728900074958801
232,1668904094619,0.07447600364685059,-0.10565000027418137,0.6728900074958801
233,1668904094628,0.07447600364685059,-0.10565000027418137,0.6728900074958801
234,1668904094638,0.07447600364685059,-0.10565000027418137,0.6728900074958801
235,1668904094652,0.07447600364685059,-0.10565000027418137,0.6728900074958801
236,1668904094658,0.07447600364685059,-0.10565000027418137,0.6728900074958801
237,1668904094668,0.07447600364685059,-0.10565000027418137,0.6728900074958801
238,1668904094678,0.07447600364685059,-0.10565000027418137,0.6728900074958801
239,1668904094691,0.07447600364685059,-0.10565000027418137,0.6728900074958801
240,1668904094705,0.07447600364685059,-0.10565000027418137,0.6728900074958801
241,1668904094761,0.07447600364685059,-0.10565000027418137,0.6728900074958801
242,1668904094802,0.07447600364685059,-0.10565000027418137,0.6728900074958801
243,1668904094811,0.07447600364685059,-0.10565000027418137,0.6728900074958801
244,1668904094836,0.07447600364685059,-0.10565000027418137,0.6728900074958801
245,1668904094853,0.07447600364685059,-0.10565000027418137,0.6728900074958801
246,1668904094866,0.07447600364685059,-0.10565000027418137,0.6728900074958801
247,1668904094943,0.07433000206947327,-0.10681399703025818,0.6743019819259644
248,1668904094955,0.07433000206947327,-0.10681399703025818,0.6743019819259644
249,1668904094966,0.07433000206947327,-0.10681399703025818,0.6743019819259644
250,1668904094982,0.07433000206947327,-0.10681399703025818,0.6743019819259644
251,1668904094996,0.07433000206947327,-0.10681399703025818,0.6743019819259644
252,1668904095019,0.07433000206947327,-0.10681399703025818,0.6743019819259644
253,1668904095037,0.07433000206947327,-0.10681399703025818,0.6743019819259644
254,1668904095150,0.07433000206947327,-0.10681399703025818,0.6743019819259644
255,1668904095193,0.07441499829292297,-0.10676400363445282,0.6744620203971863
256,1668904095224,0.07441399991512299,-0.1067729964852333,0.6744790077209473
257,1668904095229,0.07441399991512299,-0.1067729964852333,0.6744790077209473
