GAME RV,[id],[Time],[X],[Y]
0,1668902763381,0.2594110071659088,-0.619301974773407,-0.6216830015182495
1,1668902763410,0.26988300681114197,-0.6141070127487183,-0.6164929866790771
2,1668902763421,0.27317699790000916,-0.6124150156974792,-0.6149420142173767
3,1668902763430,0.27662500739097595,-0.6104949712753296,-0.6134499907493591
4,1668902763470,0.2893050014972687,-0.6046270132064819,-0.6078479886054993
5,1668902763474,0.2893050014972687,-0.6046270132064819,-0.6078479886054993
6,1668902763477,0.2924500107765198,-0.603547990322113,-0.6064370274543762
7,1668902763504,0.29861199855804443,-0.6019060015678406,-0.6039090156555176
8,1668902763522,0.3052529990673065,-0.6014270186424255,-0.6013280153274536
9,1668902763538,0.31210801005363464,-0.601410984992981,-0.5988860130310059
10,1668902763550,0.3151940107345581,-0.6021490097045898,-0.5970190167427063
11,1668902763567,0.3206399977207184,-0.6035619974136353,-0.5935789942741394
12,1668902763584,0.3244880139827728,-0.6035400032997131,-0.591946005821228
13,1668902763597,0.32596099376678467,-0.6029109954833984,-0.5919139981269836
14,1668902763609,0.32778701186180115,-0.6022899746894836,-0.5917559862136841
15,1668902763620,0.3295170068740845,-0.6019619703292847,-0.5913640260696411
16,1668902763630,0.331510990858078,-0.6016029715538025,-0.5908430218696594
17,1668902763640,0.33330899477005005,-0.6010929942131042,-0.5904849767684937
18,1668902763652,0.33482199907302856,-0.6003440022468567,-0.5903900265693665
19,1668902763661,0.3361330032348633,-0.5994189977645874,-0.5904350280761719
20,1668902763675,0.3385460078716278,-0.5973330140113831,-0.5905100107192993
21,1668902763686,0.3399209976196289,-0.5960419774055481,-0.5904790163040161
22,1668902763698,0.3410800099372864,-0.5949869751930237,-0.5903419852256775
23,1668902763713,0.34239399433135986,-0.5939620137214661,-0.5899549722671509
24,1668902763726,0.345194011926651,-0.5917680263519287,-0.5887230038642883
25,1668902763740,0.34596699476242065,-0.5906689763069153,-0.5884400010108948
26,1668902763749,0.3471609950065613,-0.5891839861869812,-0.5879849791526794
27,1668902763778,0.3507139980792999,-0.5839669704437256,-0.587315022945404
28,1668902763792,0.3524160087108612,-0.5815290212631226,-0.5871670246124268
29,1668902763806,0.35534000396728516,-0.5763580203056335,-0.5880690217018127
30,1668902763830,0.35903000831604004,-0.5708180069923401,-0.5888339877128601
31,1668902763819,0.3569610118865967,-0.5736950039863586,-0.5886150002479553
32,1668902763796,0.3536129891872406,-0.5792509913444519,-0.587660014629364
33,1668902763843,0.36087700724601746,-0.5681229829788208,-0.5892249941825867
34,1668902763852,0.36319899559020996,-0.5648180246353149,-0.5894290208816528
35,1668902763867,0.3669700026512146,-0.5595009922981262,-0.5900760293006897
36,1668902763877,0.3689180016517639,-0.5568040013313293,-0.5902590155601501
37,1668902763889,0.37068700790405273,-0.5541290044784546,-0.5904830098152161
38,1668902763905,0.3748509883880615,-0.5484989881515503,-0.590349018573761
39,1668902763916,0.3770509958267212,-0.5461570024490356,-0.5899549722671509
40,1668902763929,0.37939101457595825,-0.5441769957542419,-0.5892170071601868
41,1668902763942,0.3813380002975464,-0.5425040125846863,-0.5885069966316223
42,1668902763953,0.3830240070819855,-0.5408959984779358,-0.5877659916877747
43,1668902763967,0.3864069879055023,-0.53780198097229,-0.5855029821395874
44,1668902764020,0.4083009958267212,-0.5186790227890015,-0.5896340012550354
45,1668902764030,0.41215598583221436,-0.517096996307373,-0.5883859992027283
46,1668902764061,0.42215999960899353,-0.5143910050392151,-0.5832189917564392
47,1668902764070,0.4255639910697937,-0.5136839747428894,-0.5809890031814575
48,1668902764085,0.43076300621032715,-0.5122720003128052,-0.5763909816741943
49,1668902764098,0.43366700410842896,-0.5120369791984558,-0.5743610262870789
50,1668902764043,0.4156849980354309,-0.5159429907798767,-0.5870159864425659
51,1668902764116,0.43991899490356445,-0.5109429955482483,-0.5701079964637756
52,1668902764128,0.4430280029773712,-0.5105630159378052,-0.5677120089530945
53,1668902764141,0.4458959996700287,-0.5099909901618958,-0.5652809739112854
54,1668902764152,0.4489690065383911,-0.509423017501831,-0.562574028968811
55,1668902764168,0.45284199714660645,-0.507955014705658,-0.5589029788970947
56,1668902764181,0.4542039930820465,-0.5069440007209778,-0.5573499798774719
57,1668902764194,0.45562300086021423,-0.5057830214500427,-0.5555880069732666
58,1668902764211,0.4583300054073334,-0.5037580132484436,-0.5524970293045044
59,1668902764229,0.4605419933795929,-0.5015280246734619,-0.5499569773674011
60,1668902764252,0.4629319906234741,-0.4979490041732788,-0.5479580163955688
61,1668902764262,0.4637260138988495,-0.4956130087375641,-0.5475170016288757
62,1668902764270,0.46446099877357483,-0.49323099851608276,-0.5470060110092163
63,1668902764286,0.4657300114631653,-0.49000298976898193,-0.5450839996337891
64,1668902764313,0.4661490023136139,-0.48580101132392883,-0.5441039800643921
65,1668902764627,0.4632889926433563,-0.48008298873901367,-0.5457310080528259
66,1668902764806,0.43856799602508545,-0.5120229721069336,-0.4672429859638214
67,1668902764814,0.43856799602508545,-0.5120229721069336,-0.4672429859638214
68,1668902764822,0.43856799602508545,-0.5120229721069336,-0.4672429859638214
69,1668902764838,0.43856799602508545,-0.5120229721069336,-0.4672429859638214
70,1668902764852,0.43856799602508545,-0.5120229721069336,-0.4672429859638214
71,1668902764862,0.43856799602508545,-0.5120229721069336,-0.4672429859638214
72,1668902764872,0.4492869973182678,-0.5098279714584351,-0.45019400119781494
73,1668902764900,0.4529849886894226,-0.5082359910011292,-0.44474300742149353
74,1668902764943,0.4529849886894226,-0.5082359910011292,-0.44474300742149353
75,1668902764960,0.4529849886894226,-0.5082359910011292,-0.44474300742149353
76,1668902764974,0.4529849886894226,-0.5082359910011292,-0.44474300742149353
77,1668902764980,0.4529849886894226,-0.5082359910011292,-0.44474300742149353
78,1668902764993,0.4529849886894226,-0.5082359910011292,-0.44474300742149353
79,1668902765001,0.4529849886894226,-0.5082359910011292,-0.44474300742149353
80,1668902765007,0.4529849886894226,-0.5082359910011292,-0.44474300742149353
81,1668902765009,0.4529849886894226,-0.5082359910011292,-0.44474300742149353
82,1668902765021,0.4529849886894226,-0.5082359910011292,-0.44474300742149353
83,1668902765036,0.4529849886894226,-0.5082359910011292,-0.44474300742149353
84,1668902765058,0.4819760024547577,-0.49016499519348145,-0.39577800035476685
85,1668902765074,0.4819760024547577,-0.49016499519348145,-0.39577800035476685
86,1668902765090,0.4819760024547577,-0.49016499519348145,-0.39577800035476685
87,1668902765103,0.4819760024547577,-0.49016499519348145,-0.39577800035476685
88,1668902765112,0.4924359917640686,-0.4730350077152252,-0.3949030041694641
89,1668902765123,0.49410998821258545,-0.47076699137687683,-0.39517900347709656
90,1668902765134,0.49410998821258545,-0.47076699137687683,-0.39517900347709656
91,1668902765152,0.4991160035133362,-0.4641770124435425,-0.3975389897823334
92,1668902765233,0.5052080154418945,-0.46005600690841675,-0.40040498971939087
93,1668902765237,0.5052080154418945,-0.46005600690841675,-0.40040498971939087
94,1668902765308,0.5161229968070984,-0.45456698536872864,-0.4025000035762787
95,1668902765354,0.5208520293235779,-0.4402860105037689,-0.4072990119457245
96,1668902765370,0.5226410031318665,-0.43577298521995544,-0.40669500827789307
97,1668902765383,0.5239310264587402,-0.4329710006713867,-0.40610799193382263
98,1668902765434,0.5315200090408325,-0.41578200459480286,-0.40374499559402466
99,1668902765456,0.5334129929542542,-0.4120410084724426,-0.4035220146179199
100,1668902765471,0.5399569869041443,-0.3984070122241974,-0.40377700328826904
101,1668902765490,0.5417479872703552,-0.3936670124530792,-0.4047830104827881
102,1668902765529,0.5449439883232117,-0.3834869861602783,-0.4072380065917969
103,1668902765530,0.5449439883232117,-0.3834869861602783,-0.4072380065917969
104,1668902765547,0.5503889918327332,-0.36629098653793335,-0.4111120104789734
105,1668902765564,0.55281001329422,-0.3596239984035492,-0.4121429920196533
106,1668902765577,0.5542020201683044,-0.35646000504493713,-0.4121539890766144
107,1668902765593,0.5569409728050232,-0.3507100045681,-0.4116230010986328
108,1668902765608,0.5592560172080994,-0.34604400396347046,-0.411202996969223
109,1668902765615,0.5592560172080994,-0.34604400396347046,-0.411202996969223
110,1668902765649,0.5657250285148621,-0.3230850100517273,-0.4200890064239502
111,1668902765650,0.5657250285148621,-0.3230850100517273,-0.4200890064239502
112,1668902765661,0.567317008972168,-0.31333300471305847,-0.4258120059967041
113,1668902765673,0.5690469741821289,-0.30843600630760193,-0.4268740117549896
114,1668902765684,0.5706560015678406,-0.30651500821113586,-0.4251829981803894
115,1668902765695,0.5722470283508301,-0.30504798889160156,-0.4229240119457245
116,1668902765707,0.5737209916114807,-0.303602010011673,-0.42052000761032104
117,1668902765716,0.5752220153808594,-0.30219700932502747,-0.41748398542404175
118,1668902765741,0.5793870091438293,-0.2989029884338379,-0.40796899795532227
119,1668902765730,0.5779560208320618,-0.30022698640823364,-0.4108079969882965
120,1668902765750,0.5811949968338013,-0.29756900668144226,-0.40455400943756104
121,1668902765758,0.5830249786376953,-0.29624301195144653,-0.40097200870513916
122,1668902765768,0.584941029548645,-0.294730007648468,-0.39694300293922424
123,1668902765778,0.5865730047225952,-0.2936820089817047,-0.3934449851512909
124,1668902765787,0.5885769724845886,-0.29272499680519104,-0.3893049955368042
125,1668902765795,0.5885769724845886,-0.29272499680519104,-0.3893049955368042
126,1668902765804,0.5907589793205261,-0.29190000891685486,-0.3848229944705963
127,1668902765812,0.5928729772567749,-0.29112300276756287,-0.38016799092292786
128,1668902765820,0.5948590040206909,-0.2903189957141876,-0.37530800700187683
129,1668902765829,0.5971130132675171,-0.2894209921360016,-0.3696269989013672
130,1668902765838,0.5991610288619995,-0.28908100724220276,-0.3643989861011505
131,1668902765849,0.6015040278434753,-0.288796991109848,-0.35826700925827026
132,1668902765858,0.6037420034408569,-0.2886039912700653,-0.351842999458313
133,1668902765867,0.6037420034408569,-0.2886039912700653,-0.351842999458313
134,1668902765875,0.6058679819107056,-0.2883700132369995,-0.34517499804496765
135,1668902765887,0.61046302318573,-0.28735798597335815,-0.33065900206565857
136,1668902765895,0.61046302318573,-0.28735798597335815,-0.33065900206565857
137,1668902765905,0.6125140190124512,-0.2868190109729767,-0.324178010225296
138,1668902765929,0.619504988193512,-0.2822220027446747,-0.30320098996162415
139,1668902766523,0.6480429768562317,-0.22355300188064575,-0.11864600330591202
140,1668902766559,0.6477839946746826,-0.2264530062675476,-0.11771299690008163
141,1668902766567,0.6479640007019043,-0.22707900404930115,-0.11713200062513351
142,1668902766579,0.6480669975280762,-0.22785699367523193,-0.11666099727153778
143,1668902766592,0.6480519771575928,-0.2288060039281845,-0.11637300252914429
144,1668902766620,0.647773027420044,-0.23148100078105927,-0.11525099724531174
145,1668902766629,0.6477829813957214,-0.23224399983882904,-0.11471399664878845
146,1668902766639,0.6478660106658936,-0.2330940067768097,-0.11425500363111496
147,1668902766647,0.6479550004005432,-0.23405399918556213,-0.113926000893116
148,1668902766654,0.6479550004005432,-0.23405399918556213,-0.113926000893116
149,1668902766666,0.6480299830436707,-0.23516599833965302,-0.11382000148296356
150,1668902766679,0.6480370163917542,-0.23741799592971802,-0.1144620031118393
151,1668902766690,0.6480559706687927,-0.23844100534915924,-0.11503700166940689
152,1668902766699,0.6481459736824036,-0.23969799280166626,-0.11594799906015396
153,1668902766711,0.6481789946556091,-0.24055899679660797,-0.11656399816274643
154,1668902766722,0.6481509804725647,-0.24175000190734863,-0.11764399707317352
155,1668902766731,0.6480600237846375,-0.24305300414562225,-0.11889299750328064
156,1668902766742,0.6479520201683044,-0.24463200569152832,-0.12055200338363647
157,1668902766751,0.6479160189628601,-0.24575099349021912,-0.12161900103092194
158,1668902766760,0.6478769779205322,-0.24714399874210358,-0.1229960024356842
159,1668902766768,0.6478319764137268,-0.24862299859523773,-0.12431299686431885
160,1668902766778,0.6478239893913269,-0.25014400482177734,-0.12552300095558167
161,1668902766791,0.647907018661499,-0.2516089975833893,-0.12659600377082825
162,1668902766801,0.6480420231819153,-0.2531149983406067,-0.12770399451255798
163,1668902766809,0.6481019854545593,-0.2545129954814911,-0.12855899333953857
164,1668902766822,0.6481000185012817,-0.2561750113964081,-0.12964199483394623
165,1668902766832,0.6480559706687927,-0.25798600912094116,-0.13070599734783173
166,1668902766841,0.6479679942131042,-0.2598380148410797,-0.13168799877166748
167,1668902766851,0.6477900147438049,-0.26161301136016846,-0.13264200091362
168,1668902766859,0.6475899815559387,-0.26336100697517395,-0.13374300301074982
169,1668902766867,0.6475399732589722,-0.26471999287605286,-0.1345680058002472
170,1668902766876,0.6476789712905884,-0.2660050094127655,-0.1356479972600937
171,1668902766888,0.6478260159492493,-0.2672039866447449,-0.13690899312496185
172,1668902766900,0.6478490233421326,-0.26847898960113525,-0.13840200006961823
173,1668902766911,0.6477630138397217,-0.26988500356674194,-0.14006899297237396
174,1668902766929,0.6474310159683228,-0.2727999985218048,-0.14353899657726288
175,1668902767139,0.6421369910240173,-0.305633008480072,-0.16898299753665924
176,1668902767157,0.6414830088615417,-0.3078249990940094,-0.17345300316810608
177,1668902767166,0.6411449909210205,-0.30898401141166687,-0.17579500377178192
178,1668902767178,0.6404200196266174,-0.31101998686790466,-0.18015800416469574
179,1668902767191,0.6400460004806519,-0.31216999888420105,-0.1824139952659607
180,1668902767199,0.6396830081939697,-0.31341099739074707,-0.18473799526691437
181,1668902767210,0.6394420266151428,-0.314301997423172,-0.18637000024318695
182,1668902767219,0.6389750242233276,-0.31591901183128357,-0.18925000727176666
183,1668902767229,0.6385849714279175,-0.31703099608421326,-0.19128300249576569
184,1668902767238,0.6378909945487976,-0.31869998574256897,-0.19415299594402313
185,1668902767244,0.6378909945487976,-0.31869998574256897,-0.19415299594402313
186,1668902767253,0.6372420191764832,-0.32015299797058105,-0.1965939998626709
187,1668902767262,0.6365039944648743,-0.3220379948616028,-0.19957000017166138
188,1668902767270,0.6360340118408203,-0.3235650062561035,-0.2020149976015091
189,1668902767279,0.6354510188102722,-0.3254280090332031,-0.20535799860954285
190,1668902767286,0.6352239847183228,-0.3265079855918884,-0.20794899761676788
191,1668902767296,0.6343870162963867,-0.3284749984741211,-0.2115979939699173
192,1668902767304,0.6343870162963867,-0.3284749984741211,-0.2115979939699173
193,1668902767313,0.6330159902572632,-0.3306350111961365,-0.21502700448036194
194,1668902767324,0.6315379738807678,-0.3330320119857788,-0.21854999661445618
195,1668902767336,0.6285359859466553,-0.33807799220085144,-0.22530800104141235
196,1668902767344,0.6285359859466553,-0.33807799220085144,-0.22530800104141235
197,1668902767352,0.6275339722633362,-0.3401179909706116,-0.22780099511146545
198,1668902767369,0.6257910132408142,-0.34417998790740967,-0.2328599989414215
199,1668902767379,0.6250460147857666,-0.34634798765182495,-0.23545999825000763
200,1668902767387,0.6242679953575134,-0.348488986492157,-0.23813000321388245
201,1668902767400,0.6233029961585999,-0.35060200095176697,-0.24109099805355072
202,1668902767409,0.6225590109825134,-0.3523139953613281,-0.24350500106811523
203,1668902767419,0.6218760013580322,-0.3540779948234558,-0.24616500735282898
204,1668902767487,0.6177690029144287,-0.3623580038547516,-0.26219800114631653
205,1668902767503,0.6156039834022522,-0.36360201239585876,-0.2679930031299591
206,1668902767516,0.6145970225334167,-0.36508598923683167,-0.2737959921360016
207,1668902767528,0.614700973033905,-0.3656519949436188,-0.27644699811935425
208,1668902767538,0.6149590015411377,-0.36643001437187195,-0.2793610095977783
209,1668902767544,0.6149590015411377,-0.36643001437187195,-0.2793610095977783
210,1668902767559,0.6137670278549194,-0.36831098794937134,-0.28476300835609436
211,1668902767567,0.6137670278549194,-0.36831098794937134,-0.28476300835609436
212,1668902767579,0.6110420227050781,-0.37053799629211426,-0.2901049852371216
213,1668902767588,0.6110420227050781,-0.37053799629211426,-0.2901049852371216
214,1668902767598,0.6098359823226929,-0.37143298983573914,-0.2921519875526428
215,1668902767605,0.6083130240440369,-0.37254899740219116,-0.29462599754333496
216,1668902767615,0.6070320010185242,-0.3735229969024658,-0.2967360019683838
217,1668902767666,0.5986089706420898,-0.3797209858894348,-0.3111110031604767
218,1668902767675,0.5967289805412292,-0.3811990022659302,-0.31400200724601746
219,1668902767686,0.5947920083999634,-0.38275301456451416,-0.3169260025024414
220,1668902767698,0.5906890034675598,-0.3860499858856201,-0.32308700680732727
221,1668902767716,0.5893120169639587,-0.3872250020503998,-0.32513898611068726
222,1668902767740,0.5845950245857239,-0.3916420042514801,-0.33205100893974304
223,1668902767745,0.5845950245857239,-0.3916420042514801,-0.33205100893974304
224,1668902767794,0.5767660140991211,-0.39238500595092773,-0.3481520116329193
225,1668902767879,0.575993001461029,-0.38991600275039673,-0.3655320107936859
226,1668902768571,0.5117779970169067,-0.49658098816871643,-0.471671998500824
227,1668902768616,0.5054159760475159,-0.5037140250205994,-0.47445300221443176
228,1668902768651,0.49875199794769287,-0.5103369951248169,-0.476375013589859
229,1668902768656,0.49875199794769287,-0.5103369951248169,-0.476375013589859
230,1668902768667,0.49875199794769287,-0.5103369951248169,-0.476375013589859
231,1668902768690,0.47986501455307007,-0.5208550095558167,-0.4860750138759613
232,1668902768697,0.47986501455307007,-0.5208550095558167,-0.4860750138759613
233,1668902768707,0.471671998500824,-0.5246340036392212,-0.4912390112876892
234,1668902768727,0.46865999698638916,-0.5260159969329834,-0.49300798773765564
235,1668902768738,0.46480101346969604,-0.5281080007553101,-0.49507400393486023
236,1668902768746,0.45763298869132996,-0.5320079922676086,-0.497963011264801
237,1668902768768,0.4525650143623352,-0.5346639752388,-0.4999710023403168
238,1668902768791,0.446042001247406,-0.5377870202064514,-0.5027790069580078
239,1668902768837,0.41857099533081055,-0.5529530048370361,-0.510565996170044
240,1668902768873,0.41857099533081055,-0.5529530048370361,-0.510565996170044
241,1668902768900,0.41857099533081055,-0.5529530048370361,-0.510565996170044
242,1668902768918,0.3377389907836914,-0.6041839718818665,-0.5346320271492004
243,1668902769220,0.29396700859069824,-0.620527982711792,-0.5596110224723816
244,1668902769233,0.29396700859069824,-0.620527982711792,-0.5596110224723816
245,1668902769290,0.2948800027370453,-0.6260070204734802,-0.5633040070533752
246,1668902769305,0.2945669889450073,-0.6279799938201904,-0.5644130110740662
247,1668902769377,0.2976430058479309,-0.6350269913673401,-0.5662760138511658
248,1668902769429,0.30324798822402954,-0.6415070295333862,-0.5651950240135193
249,1668902769481,0.30491799116134644,-0.6416929960250854,-0.5719349980354309
250,1668902769459,0.3057990074157715,-0.6439430117607117,-0.5664079785346985
251,1668902769488,0.30491799116134644,-0.6416929960250854,-0.5719349980354309
252,1668902769516,0.3084839880466461,-0.6458370089530945,-0.5746179819107056
253,1668902769528,0.3084839880466461,-0.6458370089530945,-0.5746179819107056
254,1668902769539,0.3084839880466461,-0.6458370089530945,-0.5746179819107056
255,1668902769549,0.3096170127391815,-0.6469169855117798,-0.5741850137710571
256,1668902769558,0.31019800901412964,-0.6453999876976013,-0.5769699811935425
257,1668902769567,0.31004598736763,-0.6449310183525085,-0.5781459808349609
